#Format: frequency (Hz)  ratio (dB)  phase (deg)
           1     -74.7615     -157.039
     1.00926     -75.2876     -157.267
     1.01861     -75.8051     -157.474
     1.02804     -76.3146      -157.66
     1.03757     -76.8165     -157.828
     1.04718     -77.3114     -157.978
     1.05688     -77.7995     -158.112
     1.06667     -78.2812     -158.231
     1.07654     -78.7568     -158.337
     1.08652     -79.2267      -158.43
     1.09658     -79.6911     -158.511
     1.10674     -80.1504     -158.581
     1.11699     -80.6046     -158.641
     1.12733     -81.0542      -158.69
     1.13777     -81.4992     -158.731
     1.14831     -81.9399     -158.762
     1.15895     -82.3765     -158.786
     1.16968     -82.8091     -158.801
     1.18052     -83.2379     -158.809
     1.19145     -83.6631      -158.81
     1.20249     -84.0848     -158.805
     1.21362     -84.5032     -158.793
     1.22486     -84.9183     -158.775
     1.23621     -85.3304     -158.751
     1.24766     -85.7394     -158.721
     1.25922     -86.1456     -158.686
     1.27088      -86.549     -158.646
     1.28265     -86.9497       -158.6
     1.29453     -87.3479     -158.551
     1.30652     -87.7435     -158.496
     1.31862     -88.1367     -158.436
     1.33083     -88.5276     -158.372
     1.34316     -88.9163     -158.304
      1.3556     -89.3027     -158.233
     1.36816     -89.6869     -158.156
     1.38083     -90.0692     -158.076
     1.39362     -90.4494     -157.992
     1.40653     -90.8277     -157.904
     1.41955     -91.2041     -157.813
      1.4327     -91.5786     -157.718
     1.44597     -91.9514      -157.62
     1.45937     -92.3224     -157.518
     1.47288     -92.6917     -157.412
     1.48652     -93.0594     -157.303
     1.50029     -93.4254     -157.192
     1.51419     -93.7899     -157.076
     1.52821     -94.1528     -156.958
     1.54237     -94.5143     -156.836
     1.55665     -94.8742     -156.711
     1.57107     -95.2328     -156.584
     1.58562     -95.5898     -156.453
     1.60031     -95.9456      -156.32
     1.61513        -96.3     -156.183
     1.63009     -96.6531     -156.043
     1.64519     -97.0048     -155.901
     1.66043     -97.3553     -155.755
     1.67581     -97.7046     -155.607
     1.69133     -98.0526     -155.455
     1.70699     -98.3994     -155.301
     1.72281     -98.7451     -155.144
     1.73876     -99.0895     -154.985
     1.75487     -99.4328     -154.822
     1.77112     -99.7749     -154.656
     1.78753     -100.116     -154.488
     1.80408     -100.456     -154.317
     1.82079     -100.795     -154.143
     1.83766     -101.133     -153.966
     1.85468     -101.469     -153.787
     1.87186     -101.805     -153.605
     1.88919     -102.139      -153.42
     1.90669     -102.473     -153.232
     1.92435     -102.806     -153.041
     1.94217     -103.137     -152.847
     1.96016     -103.468     -152.651
     1.97832     -103.797     -152.453
     1.99664     -104.126      -152.25
     2.01514     -104.453     -152.046
      2.0338      -104.78     -151.838
     2.05264     -105.105     -151.628
     2.07165      -105.43     -151.414
     2.09084     -105.753     -151.198
      2.1102     -106.076      -150.98
     2.12975     -106.398     -150.758
     2.14947     -106.718     -150.533
     2.16938     -107.038     -150.305
     2.18948     -107.357     -150.074
     2.20976     -107.674      -149.84
     2.23022     -107.991     -149.604
     2.25088     -108.307     -149.364
     2.27173     -108.622     -149.122
     2.29277     -108.935     -148.876
     2.31401     -109.248     -148.628
     2.33544      -109.56     -148.376
     2.35707     -109.871     -148.121
      2.3789      -110.18     -147.863
     2.40093     -110.489     -147.603
     2.42317     -110.797     -147.338
     2.44562     -111.104     -147.071
     2.46827     -111.409       -146.8
     2.49113     -111.714     -146.527
      2.5142     -112.017      -146.25
     2.53749      -112.32     -145.969
     2.56099     -112.621     -145.685
     2.58471     -112.921     -145.399
     2.60865      -113.22     -145.108
     2.63282     -113.518     -144.815
      2.6572     -113.815     -144.518
     2.68181      -114.11     -144.217
     2.70665     -114.405     -143.914
     2.73172     -114.698     -143.606
     2.75702      -114.99     -143.296
     2.78256      -115.28     -142.981
     2.80833     -115.569     -142.663
     2.83434     -115.857     -142.342
      2.8606     -116.144     -142.016
     2.88709     -116.429     -141.687
     2.91383     -116.713     -141.355
     2.94082     -116.995     -141.019
     2.96806     -117.276     -140.679
     2.99555     -117.556     -140.335
     3.02329     -117.833     -139.988
      3.0513      -118.11     -139.637
     3.07956     -118.384     -139.282
     3.10808     -118.657     -138.923
     3.13687     -118.928     -138.561
     3.16592     -119.198     -138.194
     3.19525     -119.465     -137.824
     3.22484     -119.731      -137.45
     3.25471     -119.995     -137.072
     3.28486     -120.257     -136.689
     3.31528     -120.516     -136.304
     3.34599     -120.774     -135.914
     3.37698     -121.029     -135.521
     3.40826     -121.283     -135.123
     3.43983     -121.533     -134.722
     3.47169     -121.782     -134.317
     3.50384     -122.028     -133.908
      3.5363     -122.271     -133.496
     3.56905     -122.512      -133.08
     3.60211      -122.75      -132.66
     3.63547     -122.985     -132.238
     3.66914     -123.217     -131.811
     3.70313     -123.446     -131.381
     3.73743     -123.671     -130.948
     3.77204     -123.893     -130.512
     3.80698     -124.112     -130.073
     3.84224     -124.327     -129.632
     3.87783     -124.539     -129.188
     3.91375     -124.746     -128.742
        3.95     -124.949     -128.294
     3.98658     -125.148     -127.845
     4.02351     -125.342     -127.394
     4.06077     -125.532     -126.942
     4.09838     -125.716      -126.49
     4.13634     -125.896     -126.037
     4.17466      -126.07     -125.585
     4.21332     -126.238     -125.135
     4.25235       -126.4     -124.687
     4.29173     -126.556     -124.241
     4.33148     -126.706     -123.799
      4.3716     -126.848     -123.362
     4.41209     -126.983      -122.93
     4.45296      -127.11     -122.506
      4.4942     -127.228      -122.09
     4.53583     -127.339     -121.684
     4.57784     -127.439     -121.291
     4.62024      -127.53     -120.911
     4.66303     -127.611     -120.549
     4.70622      -127.68     -120.205
     4.74981     -127.738     -119.885
     4.79381     -127.783     -119.592
     4.83821     -127.815     -119.329
     4.88302     -127.832     -119.102
     4.92825     -127.834     -118.917
      4.9739     -127.819     -118.782
     5.01997     -127.786     -118.703
     5.06646     -127.734     -118.691
     5.11339     -127.662     -118.757
     5.16075     -127.566     -118.917
     5.20855     -127.447     -119.186
     5.25679     -127.302     -119.585
     5.30548     -127.129     -120.142
     5.35462     -126.925     -120.886
     5.40422      -126.69     -121.858
     5.45427      -126.42     -123.109
     5.50479     -126.115     -124.699
     5.55578     -125.775     -126.709
     5.60723     -125.403     -129.237
     5.65917     -125.003     -132.404
     5.71159     -124.589     -136.351
     5.76449     -124.183     -141.235
     5.81788     -123.821     -147.192
     5.87177     -123.555     -154.289
     5.92615     -123.451     -162.438
     5.98104     -123.572      -171.32
     6.03644     -123.954      179.595
     6.09235     -124.592      170.907
     6.14878     -125.436       163.09
     6.20573     -126.421      156.387
     6.26321     -127.484      150.826
     6.32122     -128.577      146.312
     6.37977      -129.67      142.697
     6.43886     -130.743      139.829
      6.4985     -131.786      137.571
     6.55869     -132.796      135.809
     6.61943     -133.769      134.451
     6.68074     -134.707      133.425
     6.74262     -135.612      132.671
     6.80507     -136.484      132.144
      6.8681     -137.326      131.806
     6.93172      -138.14      131.627
     6.99592     -138.927      131.585
     7.06072      -139.69      131.658
     7.12612     -140.431      131.832
     7.19212      -141.15      132.093
     7.25873     -141.849      132.429
     7.32597      -142.53      132.831
     7.39382     -143.194      133.293
      7.4623      -143.84      133.806
     7.53142     -144.472      134.366
     7.60118     -145.089      134.968
     7.67158     -145.692      135.606
     7.74264     -146.281      136.278
     7.81435     -146.858      136.981
     7.88673     -147.423      137.712
     7.95978     -147.977      138.467
      8.0335     -148.519      139.245
     8.10791      -149.05      140.044
     8.18301     -149.571      140.862
      8.2588     -150.082      141.698
     8.33529     -150.583      142.549
      8.4125     -151.074      143.414
     8.49042     -151.556      144.293
     8.56906     -152.028      145.183
     8.64842     -152.492      146.084
     8.72853     -152.946      146.994
     8.80937     -153.391      147.912
     8.89097     -153.828      148.837
     8.97332     -154.256      149.767
     9.05643     -154.675      150.702
     9.14031     -155.086       151.64
     9.22497     -155.488       152.58
     9.31041     -155.881      153.522
     9.39665     -156.266      154.463
     9.48368     -156.642      155.403
     9.57152      -157.01      156.341
     9.66017     -157.369      157.276
     9.74965      -157.72      158.208
     9.83995     -158.062      159.136
     9.93109     -158.396       160.06
     10.0231     -158.721      160.982
     10.1159     -159.039      161.903
     10.2096     -159.347      162.827
     10.3042     -159.648       163.76
     10.3996      -159.94      164.709
     10.4959     -160.223      165.687
     10.5931     -160.497      166.711
     10.6913      -160.76      167.807
     10.7903     -161.011       169.01
     10.8902     -161.246      170.371
     10.9911     -161.457      171.964
     11.0929     -161.632      173.891
     11.1956     -161.751        176.3
     11.2993     -161.774      179.403
      11.404     -161.628     -176.504
     11.5096     -161.165     -171.026
     11.6162     -160.078     -163.734
     11.7238     -157.629     -154.566
     11.8324     -151.303     -146.653
      11.942     -144.765      78.7811
     12.0526       -157.2      76.6153
     12.1642     -161.824      86.4376
     12.2769     -164.449      94.9981
     12.3906     -166.219      101.776
     12.5054     -167.571      107.143
     12.6212       -168.7      111.529
     12.7381     -169.704      115.276
     12.8561     -170.633      118.635
     12.9752     -171.511      121.784
     13.0954     -172.355       124.85
     13.2166     -173.169      127.927
     13.3391     -173.959      131.081
     13.4626     -174.724      134.367
     13.5873     -175.464      137.824
     13.7131     -176.176      141.487
     13.8402     -176.858      145.386
     13.9684     -177.505      149.548
     14.0977     -178.114      154.001
     14.2283     -178.677      158.769
     14.3601     -179.187      163.881
     14.4931     -179.634      169.367
     14.6273     -180.007      175.257
     14.7628      -180.29     -178.416
     14.8996     -180.462     -171.618
     15.0376     -180.497     -164.319
     15.1768     -180.356     -156.491
     15.3174     -179.989      -148.12
     15.4593     -179.318     -139.224
     15.6025     -178.219     -129.884
      15.747     -176.478     -120.367
     15.8928      -173.64     -111.559
       16.04     -168.438     -107.852
     16.1886     -159.059     -165.853
     16.3385     -168.991      139.635
     16.4899     -174.487      147.558
     16.6426     -177.436      163.588
     16.7967     -178.878     -175.704
     16.9523     -178.852     -149.765
     17.1093      -176.62     -116.784
     17.2678     -169.642     -75.6144
     17.4277     -142.724      -71.457
     17.5892     -144.952      111.745
     17.7521     -162.202     -21.5299
     17.9165     -175.197      20.5592
     18.0824     -179.689      57.7278
     18.2499     -180.709      86.3946
      18.419     -179.272      107.284
     18.5896     -174.307      114.926
     18.7617     -169.644      32.4966
     18.9355     -180.371      9.44017
     19.1109     -186.071       17.593
     19.2879     -189.847      28.6686
     19.4666     -192.653      40.0021
     19.6469     -194.863      51.0069
     19.8288     -196.663       61.511
     20.0125     -198.165      71.4667
     20.1979     -199.441      80.8718
     20.3849     -200.539      89.7464
     20.5737     -201.498       98.119
     20.7643     -202.343      106.025
     20.9566     -203.097        113.5
     21.1507     -203.775      120.578
     21.3466     -204.392      127.296
     21.5443     -204.956      133.683
     21.7439     -205.477       139.77
     21.9453     -205.961      145.583
     22.1486     -206.413      151.149
     22.3537     -206.839      156.486
     22.5607     -207.242      161.618
     22.7697     -207.625      166.561
     22.9806      -207.99      171.332
     23.1935     -208.341      175.947
     23.4083     -208.678     -179.583
     23.6251     -209.003     -175.243
     23.8439     -209.319     -171.022
     24.0648     -209.625      -166.91
     24.2876     -209.923     -162.898
     24.5126     -210.214     -158.975
     24.7396     -210.498     -155.133
     24.9688     -210.778     -151.365
     25.2001     -211.051     -147.663
     25.4335     -211.321     -144.018
      25.669     -211.586     -140.423
     25.9068     -211.848     -136.871
     26.1467     -212.107     -133.355
     26.3889     -212.362     -129.868
     26.6333     -212.615     -126.401
       26.88     -212.865     -122.946
      27.129     -213.114     -119.497
     27.3803      -213.36     -116.044
     27.6339     -213.604     -112.576
     27.8898     -213.846     -109.085
     28.1481     -214.086     -105.557
     28.4088     -214.324      -101.98
      28.672      -214.56     -98.3385
     28.9375     -214.793     -94.6154
     29.2056     -215.022     -90.7909
     29.4761     -215.247     -86.8404
     29.7491     -215.466     -82.7357
     30.0246     -215.677     -78.4419
     30.3027     -215.879     -73.9184
     30.5834     -216.065      -69.113
     30.8666     -216.233     -63.9639
     31.1525     -216.371     -58.3924
     31.4411      -216.47     -52.3038
     31.7323     -216.509     -45.5824
     32.0262     -216.461     -38.0914
     32.3228     -216.286     -29.6781
     32.6222     -215.919     -20.1907
     32.9244     -215.269     -9.51734
     33.2293     -214.201       2.3434
     33.5371     -212.524      15.1738
     33.8477     -209.952      28.3653
     34.1612         -206      40.4553
     34.4776     -199.642      46.6885
      34.797     -189.301      18.4539
     35.1193     -187.051     -60.7341
     35.4446     -191.144     -140.183
     35.7729     -200.818     -156.828
     36.1042     -206.354     -149.319
     36.4386     -209.712     -138.987
     36.7761      -211.93      -129.25
     37.1167     -213.501     -120.675
     37.4605     -214.681     -113.201
     37.8075      -215.61     -106.638
     38.1576     -216.372     -100.807
     38.5111     -217.016     -95.5596
     38.8678     -217.574     -90.7777
     39.2278      -218.07      -86.374
     39.5911     -218.516     -82.2773
     39.9578     -218.924     -78.4351
     40.3279     -219.302     -74.8042
     40.7014     -219.656     -71.3504
     41.0784     -219.988     -68.0462
     41.4589     -220.304     -64.8697
     41.8429     -220.606     -61.8021
     42.2304     -220.895     -58.8284
     42.6216     -221.173     -55.9356
     43.0164     -221.442     -53.1128
     43.4148     -221.703     -50.3509
     43.8169     -221.956     -47.6418
     44.2227     -222.202     -44.9788
     44.6323     -222.442     -42.3561
     45.0457     -222.676     -39.7683
      45.463     -222.904      -37.211
      45.884     -223.128     -34.6804
      46.309     -223.346     -32.1728
     46.7379      -223.56     -29.6853
     47.1708      -223.77     -27.2152
     47.6078     -223.975     -24.7599
     48.0487     -224.175     -22.3175
     48.4937     -224.372     -19.8862
     48.9429     -224.564     -17.4642
     49.3962     -224.752     -15.0503
     49.8537     -224.935     -12.6431
     50.3155     -225.114     -10.2417
     50.7815     -225.289     -7.84517
     51.2519      -225.46     -5.45285
     51.7266     -225.626     -3.06417
     52.2057     -225.788    -0.678703
     52.6892     -225.946      1.70384
     53.1772     -226.098      4.08361
     53.6698     -226.247      6.46067
     54.1669      -226.39      8.83495
     54.6686     -226.529      11.2062
     55.1749     -226.662      13.5743
      55.686     -226.791      15.9387
     56.2017     -226.915      18.2991
     56.7223     -227.034      20.6548
     57.2477     -227.148      23.0053
     57.7779     -227.257        25.35
      58.313      -227.36       27.688
     58.8532     -227.459      30.0185
     59.3983     -227.552      32.3408
     59.9484      -227.64      34.6539
     60.5037     -227.723       36.957
     61.0641     -227.801      39.2492
     61.6297     -227.873      41.5294
     62.2005     -227.941      43.7968
     62.7766     -228.004      46.0505
     63.3581     -228.061      48.2895
     63.9449     -228.114      50.5129
     64.5372     -228.162      52.7199
     65.1349     -228.205      54.9096
     65.7382     -228.244      57.0812
     66.3471     -228.278      59.2341
     66.9616     -228.308      61.3672
     67.5818     -228.333      63.4797
     68.2078     -228.354      65.5716
     68.8395     -228.372      67.6423
     69.4771     -228.385      69.6906
     70.1206     -228.395      71.7166
     70.7701     -228.401      73.7202
     71.4256     -228.403      75.6998
     72.0872     -228.402      77.6564
     72.7548     -228.398       79.589
     73.4287     -228.391      81.4975
     74.1088     -228.381       83.382
     74.7952     -228.369      85.2424
      75.488     -228.353      87.0787
     76.1872     -228.335      88.8904
     76.8928     -228.315       90.678
      77.605     -228.292       92.441
     78.3238     -228.268      94.1805
     79.0493     -228.241      95.8959
     79.7814     -228.212      97.5873
     80.5204     -228.182      99.2552
     81.2662      -228.15        100.9
     82.0189     -228.116      102.521
     82.7786     -228.081       104.12
     83.5453     -228.044      105.695
     84.3191     -228.007      107.249
     85.1001     -227.968       108.78
     85.8883     -227.927       110.29
     86.6838     -227.886      111.778
     87.4867     -227.844      113.246
      88.297     -227.801      114.692
     89.1148     -227.757      116.118
     89.9402     -227.712      117.524
     90.7733     -227.667      118.911
      91.614     -227.621      120.278
     92.4626     -227.574      121.625
      93.319     -227.527      122.954
     94.1833      -227.48      124.265
     95.0557     -227.432      125.559
     95.9361     -227.383      126.833
     96.8247     -227.334      128.092
     97.7215     -227.285      129.333
     98.6266     -227.236      130.557
     99.5401     -227.186      131.765
     100.462     -227.136      132.957
     101.393     -227.086      134.133
     102.332     -227.036      135.294
     103.279     -226.985       136.44
     104.236     -226.935      137.572
     105.202     -226.884      138.688
     106.176     -226.834      139.791
     107.159     -226.783      140.879
     108.152     -226.732      141.955
     109.154     -226.682      143.017
     110.165     -226.631      144.065
     111.185     -226.581      145.101
     112.215      -226.53      146.125
     113.254      -226.48      147.136
     114.303     -226.429      148.135
     115.362     -226.379      149.123
      116.43     -226.329      150.098
     117.509     -226.279      151.063
     118.597     -226.229      152.017
     119.696     -226.179      152.959
     120.804      -226.13      153.891
     121.923      -226.08      154.813
     123.052     -226.031      155.724
     124.192     -225.982      156.626
     125.342     -225.933      157.518
     126.503     -225.884        158.4
     127.675     -225.836      159.273
     128.858     -225.788      160.136
     130.051      -225.74      160.991
     131.256     -225.692      161.837
     132.471     -225.644      162.674
     133.698     -225.597      163.503
     134.937      -225.55      164.324
     136.187     -225.503      165.136
     137.448     -225.457      165.941
     138.721      -225.41      166.738
     140.006     -225.364      167.527
     141.303     -225.318      168.309
     142.611     -225.273      169.084
     143.932     -225.228      169.852
     145.265     -225.183      170.613
     146.611     -225.138      171.367
     147.969     -225.094      172.114
     149.339      -225.05      172.856
     150.723     -225.006      173.591
     152.119     -224.963      174.319
     153.527      -224.92      175.042
     154.949     -224.877      175.759
     156.385     -224.834       176.47
     157.833     -224.792      177.176
     159.295     -224.751      177.876
      160.77     -224.709      178.571
      162.26     -224.668      179.261
     163.762     -224.627      179.946
     165.279     -224.587     -179.374
      166.81     -224.547     -178.699
     168.355     -224.507     -178.028
     169.914     -224.467     -177.361
     171.488     -224.428     -176.699
     173.077      -224.39     -176.041
      174.68     -224.351     -175.387
     176.298     -224.313     -174.737
      177.93     -224.276      -174.09
     179.578     -224.238     -173.448
     181.242     -224.201     -172.808
      182.92     -224.165     -172.172
     184.615     -224.129      -171.54
     186.325     -224.093      -170.91
      188.05     -224.058     -170.283
     189.792     -224.023     -169.659
      191.55     -223.988     -169.038
     193.324     -223.954     -168.419
     195.115     -223.921     -167.803
     196.922     -223.887     -167.189
     198.746     -223.855     -166.577
     200.587     -223.822     -165.968
     202.445      -223.79      -165.36
      204.32     -223.759     -164.753
     206.212     -223.728     -164.149
     208.122     -223.697     -163.546
      210.05     -223.667     -162.945
     211.995     -223.637     -162.344
     213.959     -223.608     -161.744
     215.941     -223.579     -161.146
     217.941     -223.551     -160.549
     219.959     -223.524     -159.951
     221.997     -223.497     -159.355
     224.053      -223.47     -158.759
     226.128     -223.444     -158.163
     228.222     -223.419     -157.567
     230.336     -223.394      -156.97
      232.47      -223.37     -156.374
     234.623     -223.347     -155.777
     236.796     -223.324      -155.18
     238.989     -223.302     -154.582
     241.203     -223.281     -153.982
     243.437     -223.261     -153.382
     245.692     -223.241      -152.78
     247.967     -223.223     -152.176
     250.264     -223.205     -151.571
     252.582     -223.189     -150.964
     254.921     -223.173     -150.354
     257.283     -223.159     -149.741
     259.666     -223.146     -149.126
     262.071     -223.135     -148.507
     264.498     -223.125     -147.885
     266.948     -223.117     -147.258
      269.42     -223.111     -146.627
     271.916     -223.107      -145.99
     274.434     -223.105     -145.348
     276.976     -223.106     -144.699
     279.542     -223.109     -144.042
     282.131     -223.116     -143.377
     284.744     -223.127     -142.702
     287.381     -223.142     -142.015
     290.043     -223.163     -141.315
     292.729     -223.189     -140.598
     295.441     -223.222     -139.862
     298.177     -223.264     -139.103
     300.939     -223.316     -138.313
     303.726     -223.381     -137.486
      306.54     -223.461      -136.61
     309.379     -223.561     -135.668
     312.244     -223.686     -134.636
     315.136     -223.845     -133.476
     318.055     -224.049     -132.125
     321.001     -224.315     -130.472
     323.974     -224.671     -128.313
     326.975     -225.159     -125.229
     330.003     -225.839     -120.246
      333.06     -226.739     -110.819
     336.145     -227.309     -90.3915
     339.258     -224.147     -58.5729
     342.401     -214.364     -81.0139
     345.572     -214.035     -88.0934
     348.773     -214.592     -75.4247
     352.003     -215.697     -116.276
     355.263     -217.088     -122.634
     358.554     -217.916     -124.645
     361.875     -218.459      -125.27
     365.227     -218.839     -125.301
      368.61     -219.115     -125.033
     372.024     -219.322     -124.599
     375.469     -219.481     -124.065
     378.947     -219.603     -123.467
     382.457     -219.699     -122.826
     385.999     -219.774     -122.153
     389.575     -219.831     -121.458
     393.183     -219.876     -120.747
     396.825     -219.909      -120.02
       400.5     -219.933     -119.283
      404.21     -219.949     -118.535
     407.953     -219.959     -117.779
     411.732     -219.962     -117.015
     415.546      -219.96     -116.244
     419.394     -219.954     -115.466
     423.279     -219.944     -114.682
     427.199      -219.93     -113.891
     431.156     -219.912     -113.094
      435.15     -219.892     -112.292
      439.18     -219.868     -111.483
     443.248     -219.842     -110.669
     447.353     -219.814     -109.849
     451.497     -219.783     -109.023
     455.679     -219.749     -108.192
     459.899     -219.714     -107.354
     464.159     -219.676     -106.511
     468.458     -219.636     -105.662
     472.797     -219.595     -104.807
     477.176     -219.552     -103.945
     481.596     -219.506     -103.079
     486.056     -219.459     -102.205
     490.558      -219.41     -101.325
     495.102      -219.36     -100.438
     499.688     -219.308     -99.5445
     504.316     -219.254     -98.6439
     508.987     -219.198     -97.7357
     513.701     -219.141     -96.8196
     518.459     -219.082     -95.8954
     523.261     -219.021      -94.962
     528.108     -218.959     -94.0195
     532.999     -218.895     -93.0667
     537.936      -218.83      -92.103
     542.919     -218.763     -91.1272
     547.947     -218.695     -90.1383
     553.022     -218.624     -89.1345
     558.145     -218.553     -88.1146
     563.314     -218.479     -87.0758
     568.532     -218.404     -86.0164
     573.798     -218.327     -84.9324
     579.112     -218.248     -83.8203
     584.476     -218.167     -82.6749
      589.89     -218.084     -81.4912
     595.353     -217.999     -80.2605
     600.868      -217.91     -78.9731
     606.433     -217.818     -77.6163
      612.05     -217.722     -76.1736
     617.719      -217.62     -74.6203
      623.44      -217.51     -72.9261
     629.215     -217.388     -71.0445
     635.043     -217.248     -68.9125
     640.924     -217.076     -66.4339
     646.861     -216.848     -63.4728
     652.852     -216.511     -59.8432
     658.899      -215.95     -55.3946
     665.002     -214.906     -50.5822
     671.161     -213.018     -48.9089
     677.378     -210.763     -58.4526
     683.652     -212.651     -71.6558
     689.984     -212.478     -70.6852
     696.374     -209.965     -61.0807
     702.824     -210.993     -86.9979
     709.334     -212.632     -91.5587
     715.904     -213.721     -89.7378
     722.535     -214.288     -86.6965
     729.227     -214.574     -83.8381
     735.981     -214.712     -81.3606
     742.798     -214.766     -79.2206
     749.678      -214.77     -77.3459
     756.622     -214.743     -75.6757
      763.63     -214.693     -74.1637
     770.703     -214.628     -72.7765
     777.841     -214.552     -71.4885
     785.046     -214.467     -70.2819
     792.317     -214.375     -69.1417
     799.655     -214.278     -68.0576
     807.062     -214.177     -67.0212
     814.537     -214.072     -66.0259
     822.082     -213.964     -65.0657
     829.696     -213.853     -64.1369
     837.381      -213.74     -63.2356
     845.137     -213.625     -62.3596
     852.964     -213.509     -61.5053
     860.865      -213.39     -60.6716
     868.838     -213.271     -59.8569
     876.886      -213.15     -59.0588
     885.008     -213.027     -58.2767
     893.205     -212.904     -57.5089
     901.478      -212.78     -56.7556
     909.827     -212.655     -56.0149
     918.254     -212.529     -55.2865
     926.759     -212.402     -54.5697
     935.343     -212.275     -53.8639
     944.006     -212.147     -53.1685
      952.75     -212.018     -52.4832
     961.575     -211.889     -51.8075
     970.481     -211.759      -51.141
      979.47     -211.629     -50.4834
     988.542     -211.499     -49.8343
     997.698     -211.368     -49.1935
     1006.94     -211.237     -48.5606
     1016.27     -211.105     -47.9355
     1025.68     -210.974     -47.3178
     1035.18     -210.842     -46.7074
     1044.77     -210.709     -46.1041
     1054.44     -210.577     -45.5076
     1064.21     -210.444     -44.9178
     1074.07     -210.312     -44.3344
     1084.01     -210.179     -43.7574
     1094.05     -210.046     -43.1865
     1104.19     -209.913     -42.6216
     1114.42      -209.78     -42.0625
     1124.74     -209.647     -41.5091
     1135.15     -209.514     -40.9613
     1145.67     -209.381     -40.4189
     1156.28     -209.248     -39.8818
     1166.99     -209.115     -39.3498
      1177.8     -208.982     -38.8228
     1188.71      -208.85     -38.3007
     1199.72     -208.717     -37.7834
     1210.83     -208.585     -37.2708
     1222.04     -208.453     -36.7626
     1233.36     -208.321     -36.2589
     1244.79     -208.189     -35.7595
     1256.32     -208.057     -35.2642
     1267.95     -207.926     -34.7731
      1279.7     -207.795     -34.2859
     1291.55     -207.664     -33.8025
     1303.51     -207.534     -33.3229
     1315.59     -207.404     -32.8469
     1327.77     -207.274     -32.3744
     1340.07     -207.145     -31.9053
     1352.48     -207.016     -31.4395
     1365.01     -206.888     -30.9769
     1377.65      -206.76     -30.5174
     1390.41     -206.632     -30.0609
     1403.29     -206.505     -29.6071
     1416.29     -206.378     -29.1562
      1429.4     -206.252     -28.7079
     1442.64     -206.127     -28.2621
     1456.01     -206.002     -27.8187
     1469.49     -205.877     -27.3776
      1483.1     -205.753     -26.9388
     1496.84      -205.63     -26.5019
      1510.7     -205.507     -26.0671
      1524.7     -205.385      -25.634
     1538.82     -205.264     -25.2026
     1553.07     -205.143     -24.7729
     1567.46     -205.023     -24.3446
     1581.97     -204.904     -23.9176
     1596.63     -204.786     -23.4918
     1611.41     -204.668     -23.0672
     1626.34     -204.551     -22.6434
      1641.4     -204.435     -22.2204
     1656.61      -204.32     -21.7981
     1671.95     -204.206     -21.3763
     1687.44     -204.093     -20.9548
     1703.06      -203.98     -20.5335
     1718.84     -203.869     -20.1124
     1734.76     -203.758      -19.691
     1750.83     -203.649     -19.2694
     1767.04     -203.541     -18.8473
     1783.41     -203.433     -18.4245
     1799.93     -203.327     -18.0009
      1816.6     -203.222     -17.5763
     1833.43     -203.118     -17.1505
     1850.41     -203.015     -16.7231
     1867.55     -202.914     -16.2942
     1884.84     -202.813     -15.8633
      1902.3     -202.714     -15.4304
     1919.92     -202.617     -14.9951
      1937.7      -202.52     -14.5571
     1955.65     -202.425     -14.1162
     1973.76     -202.332     -13.6721
     1992.05      -202.24     -13.2246
      2010.5     -202.149     -12.7733
     2029.12      -202.06     -12.3179
     2047.91     -201.973      -11.858
     2066.88     -201.887     -11.3934
     2086.02     -201.803     -10.9236
     2105.35      -201.72     -10.4481
     2124.85     -201.639     -9.96672
     2144.53      -201.56     -9.47884
     2164.39     -201.483     -8.98409
     2184.44     -201.407     -8.48195
     2204.67     -201.334     -7.97191
     2225.09     -201.262     -7.45344
      2245.7     -201.192     -6.92597
      2266.5     -201.124     -6.38888
     2287.49     -201.059     -5.84148
     2308.68     -200.995     -5.28322
     2330.06     -200.933     -4.71329
     2351.64     -200.874     -4.13096
     2373.42     -200.816     -3.53545
     2395.41     -200.761      -2.9259
     2417.59     -200.708     -2.30144
     2439.99     -200.657     -1.66114
     2462.59     -200.608     -1.00399
      2485.4     -200.562    -0.328986
     2508.42     -200.518     0.364981
     2531.65     -200.476      1.07905
      2555.1     -200.436      1.81443
     2578.76     -200.398      2.57236
     2602.65     -200.363      3.35416
     2626.75     -200.329       4.1612
     2651.08     -200.298       4.9949
     2675.64     -200.268      5.85672
     2700.42      -200.24      6.74818
     2725.43     -200.214      7.67076
     2750.68     -200.189      8.62617
     2776.15     -200.166      9.61584
     2801.87     -200.144      10.6414
     2827.82     -200.123      11.7046
     2854.01     -200.102      12.8066
     2880.44     -200.082      13.9492
     2907.12     -200.061      15.1336
     2934.05     -200.041      16.3612
     2961.23     -200.019      17.6328
     2988.65     -199.997      18.9494
     3016.33     -199.972      20.3117
     3044.27     -199.946      21.7198
     3072.47     -199.916      23.1736
     3100.93     -199.883      24.6728
     3129.65     -199.847      26.2162
     3158.64     -199.806      27.8024
     3187.89     -199.759      29.4293
     3217.42     -199.707      31.0944
     3247.22     -199.649      32.7942
     3277.29     -199.584       34.525
     3307.65     -199.511      36.2823
     3338.29     -199.432      38.0612
     3369.21     -199.344      39.8563
     3400.41     -199.248      41.6616
     3431.91     -199.145      43.4713
     3463.69     -199.033      45.2793
     3495.78     -198.915      47.0793
     3528.15     -198.788      48.8655
     3560.83     -198.656      50.6323
     3593.81     -198.517      52.3749
      3627.1     -198.373      54.0885
      3660.7     -198.225      55.7698
      3694.6     -198.073      57.4161
     3728.82     -197.919       59.025
     3763.36     -197.764      60.5954
     3798.22     -197.609      62.1287
      3833.4     -197.454      63.6247
      3868.9     -197.301      65.0857
     3904.74     -197.151      66.5147
      3940.9     -197.004       67.915
      3977.4     -196.862      69.2912
     4014.24     -196.725      70.6486
     4051.42     -196.593      71.9921
     4088.95     -196.468      73.3289
     4126.82      -196.35      74.6639
     4165.04     -196.238       76.004
     4203.62     -196.133      77.3556
     4242.56     -196.034      78.7255
     4281.85     -195.942      80.1201
     4321.51     -195.857      81.5451
     4361.54     -195.778      83.0067
     4401.94     -195.704       84.509
     4442.71     -195.634      86.0577
     4483.86      -195.57      87.6557
     4525.39     -195.508      89.3069
      4567.3      -195.45      91.0143
      4609.6     -195.393      92.7785
      4652.3     -195.337      94.6016
     4695.39     -195.282      96.4827
     4738.88     -195.227      98.4221
     4782.77     -195.171      100.419
     4827.07     -195.113      102.471
     4871.78     -195.053      104.576
      4916.9     -194.991      106.732
     4962.44     -194.926      108.936
     5008.41     -194.858      111.185
      5054.8     -194.786      113.476
     5101.62     -194.711      115.806
     5148.87     -194.633      118.173
     5196.56     -194.551      120.574
     5244.69     -194.467      123.007
     5293.27     -194.379      125.469
     5342.29     -194.289      127.961
     5391.77     -194.197      130.481
     5441.71     -194.103      133.028
     5492.12     -194.007      135.602
     5542.99      -193.91      138.205
     5594.33     -193.811      140.836
     5646.14     -193.712      143.497
     5698.44     -193.613       146.19
     5751.22     -193.513      148.915
     5804.49     -193.413      151.676
     5858.25     -193.313      154.473
     5912.51     -193.214      157.311
     5967.27     -193.115      160.192
     6022.54     -193.016      163.117
     6078.32     -192.918       166.09
     6134.62     -192.821      169.114
     6191.44     -192.724      172.192
     6248.79     -192.628      175.327
     6306.67     -192.533       178.52
     6365.08     -192.437     -178.223
     6424.03     -192.343     -174.902
     6483.53     -192.248     -171.517
     6543.59     -192.155     -168.073
     6604.19     -192.081     -164.484
     6665.36     -191.976     -160.786
      6727.1     -191.875      -157.11
     6789.41      -191.78     -153.328
     6852.29     -191.685     -149.448
     6915.76      -191.59      -145.47
     6979.81     -191.495      -141.39
     7044.46       -191.4     -137.203
     7109.71     -191.304     -132.904
     7175.56     -191.207     -128.472
     7242.02     -191.111     -123.936
      7309.1     -191.014     -119.254
      7376.8     -190.917     -114.423
     7445.12      -190.82     -109.432
     7514.08     -190.721     -104.266
     7583.68     -190.621     -98.9068
     7653.92      -190.52     -93.3348
     7724.81     -190.415     -87.5262
     7796.36     -190.305     -81.4528
     7868.57     -190.188     -75.0844
     7941.45     -190.059      -68.386
     8015.01     -189.913     -61.3208
     8089.24     -189.742     -53.8525
     8164.17     -189.538     -45.9492
     8239.79     -189.285     -37.5891
      8316.1      -188.97     -28.7703
     8393.13     -188.574     -19.5202
     8470.87      -188.08     -9.90444
     8549.33     -187.472   -0.0307837
     8628.51     -186.739      9.95669
     8708.43     -185.879      19.8937
     8789.09     -184.896      29.6189
      8870.5     -183.803      38.9959
     8952.66     -182.616      47.9271
     9035.58     -181.353      56.3574
     9119.27     -180.032      64.2692
     9203.73     -178.668      71.6724
     9288.98     -177.273      78.5938
     9375.01     -175.857      85.0711
     9461.85     -174.427      91.1438
     9549.49     -172.986      96.8534
     9637.93      -171.54      102.236
      9727.2     -170.089      107.329
      9817.3     -168.635      112.157
     9908.23     -167.178      116.753
       10000     -165.718      121.138
